"# Channel 1"
"# Trace 1"
Frequency, Formatted Data, Formatted Data
+8.68000000000E+008, -2.65969595015E+000, +0.00000000000E+000
+8.76160000000E+008, -2.29586508017E+000, +0.00000000000E+000
+8.84320000000E+008, -2.07503646130E+000, +0.00000000000E+000
+8.92480000000E+008, -1.91822097888E+000, +0.00000000000E+000
+9.00640000000E+008, -1.78272320547E+000, +0.00000000000E+000
+9.08800000000E+008, -1.67646770197E+000, +0.00000000000E+000
+9.16960000000E+008, -1.61158269994E+000, +0.00000000000E+000
+9.25120000000E+008, -1.53753606515E+000, +0.00000000000E+000
+9.33280000000E+008, -1.47771577432E+000, +0.00000000000E+000
+9.41440000000E+008, -1.42471670911E+000, +0.00000000000E+000
+9.49600000000E+008, -1.37389384528E+000, +0.00000000000E+000
+9.57760000000E+008, -1.30500866352E+000, +0.00000000000E+000
+9.65920000000E+008, -1.25429825280E+000, +0.00000000000E+000
+9.74080000000E+008, -1.22250649878E+000, +0.00000000000E+000
+9.82240000000E+008, -1.21031398695E+000, +0.00000000000E+000
+9.90400000000E+008, -1.19297378123E+000, +0.00000000000E+000
+9.98560000000E+008, -1.17458049582E+000, +0.00000000000E+000
+1.00672000000E+009, -1.15943544341E+000, +0.00000000000E+000
+1.01488000000E+009, -1.15456119137E+000, +0.00000000000E+000
+1.02304000000E+009, -1.13450677814E+000, +0.00000000000E+000
+1.03120000000E+009, -1.11077734542E+000, +0.00000000000E+000
+1.03936000000E+009, -1.08403692869E+000, +0.00000000000E+000
+1.04752000000E+009, -1.07082815817E+000, +0.00000000000E+000
+1.05568000000E+009, -1.06167288799E+000, +0.00000000000E+000
+1.06384000000E+009, -1.06793113137E+000, +0.00000000000E+000
+1.07200000000E+009, -1.06815205903E+000, +0.00000000000E+000
+1.08016000000E+009, -1.07045260944E+000, +0.00000000000E+000
+1.08832000000E+009, -1.09204988123E+000, +0.00000000000E+000
+1.09648000000E+009, -1.11053097592E+000, +0.00000000000E+000
+1.10464000000E+009, -1.14748082277E+000, +0.00000000000E+000
+1.11280000000E+009, -1.17815704718E+000, +0.00000000000E+000
+1.12096000000E+009, -1.21193274383E+000, +0.00000000000E+000
+1.12912000000E+009, -1.25207097696E+000, +0.00000000000E+000
+1.13728000000E+009, -1.30103538009E+000, +0.00000000000E+000
+1.14544000000E+009, -1.37185798071E+000, +0.00000000000E+000
+1.15360000000E+009, -1.41903720736E+000, +0.00000000000E+000
+1.16176000000E+009, -1.44658173787E+000, +0.00000000000E+000
+1.16992000000E+009, -1.45490997048E+000, +0.00000000000E+000
+1.17808000000E+009, -1.44364883640E+000, +0.00000000000E+000
+1.18624000000E+009, -1.51161417879E+000, +0.00000000000E+000
+1.19440000000E+009, -1.60577160637E+000, +0.00000000000E+000
+1.20256000000E+009, -1.74085524162E+000, +0.00000000000E+000
+1.21072000000E+009, -1.92091862957E+000, +0.00000000000E+000
+1.21888000000E+009, -2.14214090398E+000, +0.00000000000E+000
+1.22704000000E+009, -2.38038699649E+000, +0.00000000000E+000
+1.23520000000E+009, -2.67846769482E+000, +0.00000000000E+000
+1.24336000000E+009, -2.87361280397E+000, +0.00000000000E+000
+1.25152000000E+009, -3.08657882302E+000, +0.00000000000E+000
+1.25968000000E+009, -3.35526723711E+000, +0.00000000000E+000
+1.26784000000E+009, -3.53285246050E+000, +0.00000000000E+000
+1.27600000000E+009, -3.38979414530E+000, +0.00000000000E+000
+1.28416000000E+009, -2.88731670498E+000, +0.00000000000E+000
+1.29232000000E+009, -2.43186338396E+000, +0.00000000000E+000
+1.30048000000E+009, -2.10736775100E+000, +0.00000000000E+000
+1.30864000000E+009, -2.00953634803E+000, +0.00000000000E+000
+1.31680000000E+009, -1.94210202099E+000, +0.00000000000E+000
+1.32496000000E+009, -1.85368105011E+000, +0.00000000000E+000
+1.33312000000E+009, -1.65791248060E+000, +0.00000000000E+000
+1.34128000000E+009, -1.41651430011E+000, +0.00000000000E+000
+1.34944000000E+009, -1.29322159399E+000, +0.00000000000E+000
+1.35760000000E+009, -1.24649051964E+000, +0.00000000000E+000
+1.36576000000E+009, -1.22069774091E+000, +0.00000000000E+000
+1.37392000000E+009, -1.21782574095E+000, +0.00000000000E+000
+1.38208000000E+009, -1.26599784199E+000, +0.00000000000E+000
+1.39024000000E+009, -1.35086611612E+000, +0.00000000000E+000
+1.39840000000E+009, -1.42559990847E+000, +0.00000000000E+000
+1.40656000000E+009, -1.48055128885E+000, +0.00000000000E+000
+1.41472000000E+009, -1.50346918007E+000, +0.00000000000E+000
+1.42288000000E+009, -1.44029746284E+000, +0.00000000000E+000
+1.43104000000E+009, -1.43373671014E+000, +0.00000000000E+000
+1.43920000000E+009, -1.53308049505E+000, +0.00000000000E+000
+1.44736000000E+009, -1.58631740819E+000, +0.00000000000E+000
+1.45552000000E+009, -1.61945074422E+000, +0.00000000000E+000
+1.46368000000E+009, -1.73182717301E+000, +0.00000000000E+000
+1.47184000000E+009, -1.83128292262E+000, +0.00000000000E+000
+1.48000000000E+009, -1.84105319577E+000, +0.00000000000E+000
+1.48816000000E+009, -1.90200359900E+000, +0.00000000000E+000
+1.49632000000E+009, -1.97436747626E+000, +0.00000000000E+000
+1.50448000000E+009, -2.04386782494E+000, +0.00000000000E+000
+1.51264000000E+009, -2.06817922345E+000, +0.00000000000E+000
+1.52080000000E+009, -2.04767284823E+000, +0.00000000000E+000
+1.52896000000E+009, -1.99966139688E+000, +0.00000000000E+000
+1.53712000000E+009, -1.94723099651E+000, +0.00000000000E+000
+1.54528000000E+009, -1.90392280442E+000, +0.00000000000E+000
+1.55344000000E+009, -1.85411053627E+000, +0.00000000000E+000
+1.56160000000E+009, -1.83133653485E+000, +0.00000000000E+000
+1.56976000000E+009, -1.81285620163E+000, +0.00000000000E+000
+1.57792000000E+009, -1.80620968563E+000, +0.00000000000E+000
+1.58608000000E+009, -1.83561546383E+000, +0.00000000000E+000
+1.59424000000E+009, -1.86453198372E+000, +0.00000000000E+000
+1.60240000000E+009, -1.87979690578E+000, +0.00000000000E+000
+1.61056000000E+009, -1.88405863032E+000, +0.00000000000E+000
+1.61872000000E+009, -1.91450727834E+000, +0.00000000000E+000
+1.62688000000E+009, -1.97444051867E+000, +0.00000000000E+000
+1.63504000000E+009, -2.04293966144E+000, +0.00000000000E+000
+1.64320000000E+009, -2.13401178710E+000, +0.00000000000E+000
+1.65136000000E+009, -2.22231628530E+000, +0.00000000000E+000
+1.65952000000E+009, -2.32892755741E+000, +0.00000000000E+000
+1.66768000000E+009, -2.49696570485E+000, +0.00000000000E+000
+1.67584000000E+009, -2.71813000282E+000, +0.00000000000E+000
+1.68400000000E+009, -2.99426038393E+000, +0.00000000000E+000
+1.69216000000E+009, -3.41423852518E+000, +0.00000000000E+000
+1.70032000000E+009, -3.85989991104E+000, +0.00000000000E+000
+1.70848000000E+009, -4.35094354928E+000, +0.00000000000E+000
+1.71664000000E+009, -4.71128105420E+000, +0.00000000000E+000
+1.72480000000E+009, -5.01979501484E+000, +0.00000000000E+000
+1.73296000000E+009, -5.33044127657E+000, +0.00000000000E+000
+1.74112000000E+009, -5.65770029243E+000, +0.00000000000E+000
+1.74928000000E+009, -6.15103527173E+000, +0.00000000000E+000
+1.75744000000E+009, -6.79430359924E+000, +0.00000000000E+000
+1.76560000000E+009, -7.66487229323E+000, +0.00000000000E+000
+1.77376000000E+009, -8.77464561904E+000, +0.00000000000E+000
+1.78192000000E+009, -1.02015551857E+001, +0.00000000000E+000
+1.79008000000E+009, -1.20196802900E+001, +0.00000000000E+000
+1.79824000000E+009, -1.44024170796E+001, +0.00000000000E+000
+1.80640000000E+009, -1.69906749802E+001, +0.00000000000E+000
+1.81456000000E+009, -2.03159593854E+001, +0.00000000000E+000
+1.82272000000E+009, -2.31861228893E+001, +0.00000000000E+000
+1.83088000000E+009, -2.16380228681E+001, +0.00000000000E+000
+1.83904000000E+009, -1.97162842716E+001, +0.00000000000E+000
+1.84720000000E+009, -1.76143469837E+001, +0.00000000000E+000
+1.85536000000E+009, -1.56072180876E+001, +0.00000000000E+000
+1.86352000000E+009, -1.38735887192E+001, +0.00000000000E+000
+1.87168000000E+009, -1.25789777277E+001, +0.00000000000E+000
+1.87984000000E+009, -1.14611743838E+001, +0.00000000000E+000
+1.88800000000E+009, -1.03520280754E+001, +0.00000000000E+000
+1.89616000000E+009, -9.45123238941E+000, +0.00000000000E+000
+1.90432000000E+009, -8.76675217463E+000, +0.00000000000E+000
+1.91248000000E+009, -8.20661868509E+000, +0.00000000000E+000
+1.92064000000E+009, -7.85444813284E+000, +0.00000000000E+000
+1.92880000000E+009, -7.43234445355E+000, +0.00000000000E+000
+1.93696000000E+009, -7.02618074051E+000, +0.00000000000E+000
+1.94512000000E+009, -6.64233801264E+000, +0.00000000000E+000
+1.95328000000E+009, -6.34556349734E+000, +0.00000000000E+000
+1.96144000000E+009, -6.09953219806E+000, +0.00000000000E+000
+1.96960000000E+009, -5.81305618963E+000, +0.00000000000E+000
+1.97776000000E+009, -5.61962864666E+000, +0.00000000000E+000
+1.98592000000E+009, -5.38521420714E+000, +0.00000000000E+000
+1.99408000000E+009, -5.20927899865E+000, +0.00000000000E+000
+2.00224000000E+009, -5.07057121386E+000, +0.00000000000E+000
+2.01040000000E+009, -4.91967571166E+000, +0.00000000000E+000
+2.01856000000E+009, -4.77992291523E+000, +0.00000000000E+000
+2.02672000000E+009, -4.66261120932E+000, +0.00000000000E+000
+2.03488000000E+009, -4.57959137487E+000, +0.00000000000E+000
+2.04304000000E+009, -4.45641745635E+000, +0.00000000000E+000
+2.05120000000E+009, -4.39809775329E+000, +0.00000000000E+000
+2.05936000000E+009, -4.30510307755E+000, +0.00000000000E+000
+2.06752000000E+009, -4.25627842112E+000, +0.00000000000E+000
+2.07568000000E+009, -4.14038330108E+000, +0.00000000000E+000
+2.08384000000E+009, -4.05655829081E+000, +0.00000000000E+000
+2.09200000000E+009, -4.01522844228E+000, +0.00000000000E+000
+2.10016000000E+009, -3.97538057060E+000, +0.00000000000E+000
+2.10832000000E+009, -3.92563674678E+000, +0.00000000000E+000
+2.11648000000E+009, -3.86501645436E+000, +0.00000000000E+000
+2.12464000000E+009, -3.83572121109E+000, +0.00000000000E+000
+2.13280000000E+009, -3.79189661117E+000, +0.00000000000E+000
+2.14096000000E+009, -3.77928581036E+000, +0.00000000000E+000
+2.14912000000E+009, -3.80263819999E+000, +0.00000000000E+000
+2.15728000000E+009, -3.79631019458E+000, +0.00000000000E+000
+2.16544000000E+009, -3.82324557961E+000, +0.00000000000E+000
+2.17360000000E+009, -3.87142037733E+000, +0.00000000000E+000
+2.18176000000E+009, -3.93885150133E+000, +0.00000000000E+000
+2.18992000000E+009, -3.99880132527E+000, +0.00000000000E+000
+2.19808000000E+009, -4.06951452421E+000, +0.00000000000E+000
+2.20624000000E+009, -4.16547495956E+000, +0.00000000000E+000
+2.21440000000E+009, -4.20023716030E+000, +0.00000000000E+000
+2.22256000000E+009, -4.26361957548E+000, +0.00000000000E+000
+2.23072000000E+009, -4.35276080088E+000, +0.00000000000E+000
+2.23888000000E+009, -4.44826091007E+000, +0.00000000000E+000
+2.24704000000E+009, -4.58848289946E+000, +0.00000000000E+000
+2.25520000000E+009, -4.78714500389E+000, +0.00000000000E+000
+2.26336000000E+009, -4.99256738517E+000, +0.00000000000E+000
+2.27152000000E+009, -5.25394451629E+000, +0.00000000000E+000
+2.27968000000E+009, -5.58828997578E+000, +0.00000000000E+000
+2.28784000000E+009, -5.81515456340E+000, +0.00000000000E+000
+2.29600000000E+009, -6.12430719471E+000, +0.00000000000E+000
+2.30416000000E+009, -6.48840651414E+000, +0.00000000000E+000
+2.31232000000E+009, -6.84214756389E+000, +0.00000000000E+000
+2.32048000000E+009, -7.25587735927E+000, +0.00000000000E+000
+2.32864000000E+009, -7.70875221866E+000, +0.00000000000E+000
+2.33680000000E+009, -8.26564319403E+000, +0.00000000000E+000
+2.34496000000E+009, -8.94651077790E+000, +0.00000000000E+000
+2.35312000000E+009, -9.84638543641E+000, +0.00000000000E+000
+2.36128000000E+009, -1.08301796137E+001, +0.00000000000E+000
+2.36944000000E+009, -1.16637879111E+001, +0.00000000000E+000
+2.37760000000E+009, -1.26630390996E+001, +0.00000000000E+000
+2.38576000000E+009, -1.34432473861E+001, +0.00000000000E+000
+2.39392000000E+009, -1.43690186093E+001, +0.00000000000E+000
+2.40208000000E+009, -1.57193404670E+001, +0.00000000000E+000
+2.41024000000E+009, -1.70759903897E+001, +0.00000000000E+000
+2.41840000000E+009, -1.80159982645E+001, +0.00000000000E+000
+2.42656000000E+009, -1.95865366587E+001, +0.00000000000E+000
+2.43472000000E+009, -2.13489142182E+001, +0.00000000000E+000
+2.44288000000E+009, -2.28651144572E+001, +0.00000000000E+000
+2.45104000000E+009, -2.55092105970E+001, +0.00000000000E+000
+2.45920000000E+009, -2.52982562680E+001, +0.00000000000E+000
+2.46736000000E+009, -2.52424974623E+001, +0.00000000000E+000
+2.47552000000E+009, -2.30981465087E+001, +0.00000000000E+000
+2.48368000000E+009, -2.10300680044E+001, +0.00000000000E+000
+2.49184000000E+009, -1.92918342755E+001, +0.00000000000E+000
+2.50000000000E+009, -1.74767214148E+001, +0.00000000000E+000
